Depth(m),Cond(uS)
1.505,0.755
1.515,0.751
1.525,0.744
1.535,0.743
1.545,0.747
1.555,0.757
1.565,0.769
1.575,0.774
1.585,0.77
1.595,0.752
1.605,0.74
1.615,0.73
1.625,0.722
1.635,0.714
1.645,0.714
1.655,0.728
1.665,0.765
1.675,0.815
1.685,0.884
1.695,0.978
1.705,1.078
1.715,1.167
1.725,1.231
1.735,1.264
1.745,1.287
1.755,1.296
1.765,1.289
1.775,1.243
1.785,1.183
1.795,1.129
1.805,1.089
1.815,1.072
1.825,1.076
1.835,1.078
1.845,1.08
1.855,1.079
1.865,1.07
1.875,1.057
1.885,1.05
1.895,1.036
1.905,1.021
1.915,1.003
1.925,0.987
1.935,0.97
1.945,0.959
1.955,0.943
1.965,0.922
1.975,0.898
1.985,0.863
1.995,0.824
2.005,0.774
2.015,0.724
2.025,0.692
2.035,0.668
2.045,0.662
2.055,0.662
2.065,0.661
2.075,0.658
2.085,0.651
2.095,0.642
2.105,0.639
2.115,0.646
2.125,0.663
2.135,0.687
2.145,0.718
2.155,0.75
2.165,0.782
2.175,0.815
2.185,0.834
2.195,0.842
2.205,0.852
2.215,0.876
2.225,0.923
2.235,0.991
2.245,1.085
2.255,1.189
2.265,1.264
2.275,1.315
2.285,1.346
2.295,1.349
2.305,1.335
2.315,1.309
2.325,1.271
2.335,1.227
2.345,1.18
2.355,1.138
2.365,1.099
2.375,1.071
2.385,1.058
2.395,1.055
2.405,1.062
2.415,1.071
2.425,1.072
2.435,1.073
2.445,1.056
2.455,1.039
2.465,1.01
2.475,0.979
2.485,0.954
2.495,0.94
2.505,0.931
2.515,0.929
2.525,0.927
2.535,0.923
2.545,0.918
2.555,0.91
2.565,0.906
2.575,0.909
2.585,0.921
2.595,0.942
2.605,0.96
2.615,0.982
2.625,0.991
2.635,0.983
2.645,0.952
2.655,0.903
2.665,0.831
2.675,0.754
2.685,0.692
2.695,0.627
2.705,0.575
2.715,0.54
2.725,0.518
2.735,0.51
2.745,0.51
2.755,0.518
2.765,0.539
2.775,0.577
2.785,0.626
2.795,0.677
2.805,0.735
2.815,0.798
2.825,0.855
2.835,0.899
2.845,0.938
2.855,0.971
2.865,0.995
2.875,1.024
2.885,1.06
2.895,1.091
2.905,1.089
2.915,1.074
2.925,1.028
2.935,0.974
2.945,0.911
2.955,0.845
2.965,0.774
2.975,0.741
2.985,0.743
2.995,0.761
3.005,0.774
3.015,0.774
3.025,0.768
3.035,0.759
3.045,0.747
3.055,0.74
3.065,0.738
3.075,0.744
3.085,0.765
3.095,0.832
3.105,0.881
3.115,0.985
3.125,1.033
3.135,1.074
3.145,1.102
3.155,1.112
3.165,1.116
3.175,1.108
3.185,1.085
3.195,1.042
3.205,0.991
3.215,0.952
3.225,0.917
3.235,0.9
3.245,0.907
3.255,0.94
3.265,0.988
3.275,1.029
3.285,1.066
3.295,1.076
3.305,1.067
3.315,1.048
3.325,1.03
3.335,1.01
3.345,1.006
3.355,1.011
3.365,1.035
3.375,1.063
3.385,1.082
3.395,1.08
3.405,1.047
3.415,0.982
3.425,0.913
3.435,0.873
3.445,0.863
3.455,0.868
3.465,0.874
3.475,0.879
3.485,0.887
3.495,0.901
3.505,0.925
3.515,0.959
3.525,0.99
3.535,1.023
3.545,1.049
3.555,1.07
3.565,1.098
3.575,1.125
3.585,1.142
3.595,1.148
3.605,1.14
3.615,1.118
3.625,1.093
3.635,1.076
3.645,1.075
3.655,1.073
3.665,1.071
3.675,1.06
3.685,1.046
3.695,1.035
3.705,1.028
3.715,1.029
3.725,1.017
3.735,0.989
3.745,0.947
3.755,0.883
3.765,0.817
3.775,0.773
3.785,0.741
3.795,0.729
3.805,0.728
3.815,0.736
3.825,0.742
3.835,0.755
3.845,0.767
3.855,0.786
3.865,0.808
3.875,0.843
3.885,0.89
3.895,0.939
3.905,1.006
3.915,1.071
3.925,1.105
3.935,1.119
3.945,1.099
3.955,1.064
3.965,1.019
3.975,0.971
3.985,0.944
3.995,0.942
4.005,0.959
4.015,0.998
4.025,1.046
4.035,1.103
4.045,1.146
4.055,1.168
4.065,1.165
4.075,1.136
4.085,1.086
4.095,0.998
4.105,0.896
4.115,0.816
4.125,0.76
4.135,0.728
4.145,0.718
4.155,0.716
4.165,0.718
4.175,0.724
4.185,0.724
4.195,0.724
4.205,0.72
4.215,0.718
4.225,0.719
4.235,0.723
4.245,0.734
4.255,0.738
4.265,0.746
4.275,0.746
4.285,0.751
4.295,0.752
4.305,0.755
4.315,0.766
4.325,0.79
4.335,0.82
4.345,0.844
4.355,0.862
4.365,0.874
4.375,0.883
4.385,0.883
4.395,0.883
4.405,0.891
4.415,0.91
4.425,0.947
4.435,0.999
4.445,1.07
4.455,1.137
4.465,1.206
4.475,1.27
4.485,1.337
4.495,1.376
4.505,1.401
4.515,1.392
4.525,1.367
4.535,1.341
4.545,1.319
4.555,1.297
4.565,1.278
4.575,1.252
4.585,1.206
4.595,1.144
4.605,1.082
4.615,1.027
4.625,1.007
4.635,0.994
4.645,0.991
4.655,0.995
4.665,1.008
4.675,1.016
4.685,1.024
4.695,1.027
4.705,1.028
4.715,1.034
4.725,1.036
4.735,1.033
4.745,1.03
4.755,1.016
4.765,1.013
4.775,1.018
4.785,1.053
4.795,1.11
4.805,1.192
4.815,1.288
4.825,1.374
4.835,1.43
4.845,1.436
4.855,1.407
4.865,1.357
4.875,1.312
4.885,1.266
4.895,1.223
4.905,1.185
4.915,1.155
4.925,1.119
4.935,1.082
4.945,1.028
4.955,0.974
4.965,0.915
4.975,0.869
4.985,0.837
4.995,0.818
5.005,0.8
5.015,0.787
5.025,0.776
5.035,0.772
5.045,0.776
5.055,0.79
5.065,0.816
5.075,0.871
5.085,0.95
5.095,1.041
5.105,1.128
5.115,1.2
5.125,1.253
5.135,1.287
5.145,1.315
5.155,1.343
5.165,1.385
5.175,1.455
5.185,1.529
5.195,1.592
5.205,1.623
5.215,1.592
5.225,1.502
5.235,1.388
5.245,1.271
5.255,1.153
5.265,1.054
5.275,0.973
5.285,0.926
5.295,0.903
5.305,0.889
5.315,0.884
5.325,0.882
5.335,0.88
5.345,0.878
5.355,0.867
5.365,0.859
5.375,0.844
5.385,0.831
5.395,0.824
5.405,0.819
5.415,0.811
5.425,0.805
5.435,0.812
5.445,0.839
5.455,0.883
5.465,0.917
5.475,0.912
5.485,0.869
5.495,0.791
5.505,0.724
5.515,0.679
5.525,0.664
5.535,0.683
5.545,0.726
5.555,0.771
5.565,0.814
5.575,0.853
5.585,0.878
5.595,0.907
5.605,0.948
5.615,1.0
5.625,1.066
5.635,1.12
5.645,1.164
5.655,1.201
5.665,1.215
5.675,1.215
5.685,1.211
5.695,1.208
5.705,1.208
5.715,1.203
5.725,1.179
5.735,1.127
5.745,1.073
5.755,1.028
5.765,0.99
5.775,0.949
5.785,0.898
5.795,0.847
5.805,0.807
5.815,0.776
5.825,0.762
5.835,0.758
5.845,0.759
5.855,0.764
5.865,0.774
5.875,0.788
5.885,0.807
5.895,0.831
5.905,0.85
5.915,0.871
5.925,0.898
5.935,0.931
5.945,0.985
5.955,1.045
5.965,1.114
5.975,1.192
5.985,1.244
5.995,1.272
6.005,1.286
6.015,1.3
6.025,1.335
6.035,1.379
6.045,1.421
6.055,1.46
6.065,1.474
6.075,1.463
6.085,1.429
6.095,1.378
6.105,1.325
6.115,1.295
6.125,1.29
6.135,1.292
6.145,1.287
6.155,1.26
6.165,1.211
6.175,1.156
6.185,1.119
6.195,1.103
6.205,1.102
6.215,1.126
6.225,1.18
6.235,1.26
6.245,1.346
6.255,1.432
6.265,1.514
6.275,1.563
6.285,1.571
6.295,1.543
6.305,1.481
6.315,1.379
6.325,1.281
6.335,1.189
6.345,1.111
6.355,1.085
6.365,1.125
6.375,1.202
6.385,1.291
6.395,1.362
6.405,1.372
6.415,1.327
6.425,1.233
6.435,1.098
6.445,0.971
6.455,0.894
6.465,0.877
6.475,0.897
6.485,0.932
6.495,0.96
6.505,0.977
6.515,0.981
6.525,0.973
6.535,0.957
6.545,0.946
6.555,0.949
6.565,0.987
6.575,1.078
6.585,1.211
6.595,1.367
6.605,1.513
6.615,1.659
6.625,1.823
6.635,1.984
6.645,2.111
6.655,2.205
6.665,2.249
6.675,2.211
6.685,2.111
6.695,2.0
6.705,1.886
6.715,1.761
6.725,1.642
6.735,1.551
6.745,1.488
6.755,1.44
6.765,1.394
6.775,1.327
6.785,1.256
6.795,1.196
6.805,1.171
6.815,1.189
6.825,1.216
6.835,1.229
6.845,1.219
6.855,1.183
6.865,1.133
6.875,1.089
6.885,1.054
6.895,1.032
6.905,1.023
6.915,1.016
6.925,1.008
6.935,0.996
6.945,0.986
6.955,0.975
6.965,0.964
6.975,0.951
6.985,0.936
6.995,0.921
7.005,0.906
7.015,0.894
7.025,0.879
7.035,0.858
7.045,0.833
7.055,0.823
7.065,0.834
7.075,0.87
7.085,0.918
7.095,0.962
7.105,1.005
7.115,1.037
7.125,1.046
7.135,1.026
7.145,0.98
7.155,0.9
7.165,0.721
7.175,0.652
7.225,1.006
7.235,1.05
7.245,1.108
7.255,1.154
7.265,1.183
7.275,1.2
7.285,1.211
7.295,1.21
7.305,1.189
7.315,1.154
7.325,1.118
7.335,1.095
7.345,1.086
7.355,1.078
7.365,1.07
7.375,1.056
7.385,1.034
7.395,1.011
7.405,0.987
7.415,0.964
7.425,0.948
7.435,0.938
7.445,0.931
7.455,0.923
7.465,0.911
7.475,0.902
7.485,0.9
7.495,0.915
7.505,0.94
7.515,0.959
7.525,0.964
7.535,0.963
7.545,0.953
7.555,0.93
7.565,0.893
7.575,0.837
7.585,0.796
7.595,0.78
7.605,0.798
7.615,0.844
7.625,0.908
7.635,0.989
7.645,1.079
7.655,1.158
7.665,1.215
7.675,1.24
7.685,1.249
7.695,1.252
7.705,1.255
7.715,1.251
7.725,1.247
7.735,1.235
7.745,1.221
7.755,1.205
7.765,1.181
7.775,1.149
7.785,1.107
7.795,1.057
7.805,0.998
7.815,0.925
7.825,0.861
7.835,0.808
7.845,0.773
7.855,0.758
7.865,0.756
7.875,0.761
7.885,0.767
7.895,0.768
7.905,0.767
7.915,0.769
7.925,0.778
7.935,0.792
7.945,0.813
7.955,0.833
7.965,0.845
7.975,0.839
7.985,0.801
7.995,0.749
8.005,0.71
8.015,0.698
8.025,0.71
8.035,0.737
8.045,0.77
8.055,0.8
8.065,0.813
8.075,0.808
8.085,0.794
8.095,0.779
8.105,0.767
8.115,0.762
8.125,0.765
8.135,0.777
8.145,0.788
8.155,0.803
8.165,0.82
8.175,0.837
8.185,0.845
8.195,0.855
8.205,0.866
8.215,0.875
8.225,0.894
8.235,0.917
8.245,0.926
8.255,0.929
8.265,0.932
8.275,0.95
8.285,0.976
8.295,0.992
8.305,0.985
8.315,0.967
8.325,0.947
8.335,0.949
8.345,0.969
8.355,1.007
8.365,1.07
8.375,1.147
8.385,1.226
8.395,1.28
8.405,1.293
8.415,1.254
8.425,1.176
8.435,1.108
8.445,1.064
8.455,1.053
8.465,1.058
8.475,1.064
8.485,1.064
8.495,1.059
8.505,1.047
8.515,1.027
8.525,1.007
8.535,0.993
8.545,0.984
8.555,0.977
8.565,0.976
8.575,0.981
8.585,0.997
8.595,1.026
8.605,1.06
8.615,1.078
8.625,1.079
8.635,1.072
8.645,1.067
8.655,1.064
8.665,1.059
8.675,1.043
8.685,1.004
8.695,0.935
8.705,0.852
8.715,0.787
8.725,0.737
8.735,0.692
8.745,0.669
8.755,0.662
8.765,0.662
8.775,0.663
8.785,0.666
8.795,0.672
8.805,0.687
8.815,0.712
8.825,0.763
8.835,0.832
8.845,0.908
8.855,0.971
8.865,1.002
8.875,1.015
8.885,1.006
8.895,0.993
8.905,0.996
8.915,1.02
8.925,1.075
8.935,1.145
8.945,1.211
8.955,1.25
8.965,1.268
8.975,1.267
8.985,1.243
8.995,1.205
9.005,1.14
9.015,1.043
9.025,0.935
9.035,0.844
9.045,0.791
9.055,0.757
9.065,0.725
9.075,0.689
9.085,0.65
9.095,0.626
9.105,0.612
9.115,0.607
9.125,0.603
9.135,0.599
9.145,0.597
9.155,0.603
9.165,0.617
9.175,0.637
9.185,0.663
9.195,0.695
9.205,0.737
9.215,0.774
9.225,0.807
9.235,0.826
9.245,0.846
9.255,0.897
9.265,0.991
9.275,1.102
9.285,1.211
9.295,1.269
9.305,1.28
9.315,1.268
9.325,1.245
9.335,1.208
9.345,1.163
9.355,1.123
9.365,1.091
9.375,1.073
9.385,1.071
9.395,1.082
9.405,1.108
9.415,1.138
9.425,1.163
9.435,1.168
9.445,1.153
9.455,1.122
9.465,1.099
9.475,1.086
9.485,1.081
9.495,1.068
9.505,1.051
9.515,1.023
9.525,0.978
9.535,0.908
9.545,0.805
9.555,0.726
9.565,0.678
9.575,0.659
9.585,0.655
9.595,0.654
9.605,0.658
9.615,0.677
9.625,0.714
9.635,0.773
9.645,0.833
9.655,0.892
9.665,0.949
9.675,0.985
9.685,1.002
9.695,1.01
9.705,1.012
9.715,1.014
9.725,1.017
9.735,1.023
9.745,1.037
9.755,1.061
9.765,1.082
9.775,1.105
9.785,1.129
9.795,1.148
9.805,1.159
9.815,1.154
9.825,1.128
9.835,1.069
9.845,0.968
9.855,0.878
9.865,0.808
9.875,0.774
9.885,0.764
9.895,0.76
9.905,0.761
9.915,0.767
9.925,0.772
9.935,0.766
9.945,0.743
9.955,0.704
9.965,0.66
9.975,0.614
9.985,0.578
9.995,0.571
10.005,0.595
10.015,0.638
10.025,0.671
10.035,0.696
10.045,0.713
10.055,0.724
10.065,0.733
10.075,0.74
10.085,0.751
10.095,0.769
10.105,0.793
10.115,0.823
10.125,0.853
10.135,0.868
10.145,0.86
10.155,0.83
10.165,0.797
10.175,0.773
10.185,0.766
10.195,0.783
10.205,0.818
10.215,0.864
10.225,0.903
10.235,0.92
10.245,0.916
10.255,0.897
10.265,0.853
10.275,0.795
10.285,0.733
10.295,0.69
10.305,0.662
10.315,0.651
10.325,0.648
10.335,0.639
10.345,0.621
10.355,0.605
10.365,0.59
10.375,0.575
10.385,0.565
10.395,0.565
10.405,0.573
10.415,0.585
10.425,0.617
10.435,0.674
10.445,0.757
10.455,0.836
10.465,0.914
10.475,0.99
10.485,1.047
10.495,1.081
10.505,1.094
10.515,1.095
10.525,1.094
10.535,1.084
10.545,1.064
10.555,1.038
10.565,1.001
10.575,0.954
10.585,0.905
10.595,0.865
10.605,0.834
10.615,0.819
10.625,0.812
10.635,0.799
10.645,0.767
10.655,0.717
10.665,0.673
10.675,0.646
10.685,0.646
10.695,0.661
10.705,0.672
10.715,0.67
10.725,0.651
10.735,0.62
10.745,0.586
10.755,0.557
10.765,0.547
10.775,0.548
10.785,0.555
10.795,0.555
10.805,0.559
10.815,0.567
10.825,0.58
10.835,0.591
10.845,0.606
10.855,0.624
10.865,0.645
10.875,0.666
10.885,0.699
10.895,0.744
10.905,0.804
10.915,0.871
10.925,0.931
10.935,0.988
10.945,1.038
10.955,1.061
10.965,1.059
10.975,1.04
10.985,1.003
10.995,0.945
11.005,0.878
11.015,0.824
11.025,0.779
11.035,0.739
11.045,0.693
11.055,0.641
11.065,0.597
11.075,0.575
11.085,0.577
11.095,0.599
11.105,0.64
11.115,0.696
11.125,0.754
11.135,0.81
11.145,0.85
11.155,0.89
11.165,0.917
11.175,0.918
11.185,0.85
11.195,0.732
11.205,0.644
11.215,0.616
11.225,0.618
11.235,0.624
11.245,0.634
11.255,0.652
11.265,0.678
11.275,0.709
11.285,0.75
11.295,0.796
11.305,0.831
11.315,0.842
11.325,0.831
11.335,0.798
11.345,0.753
11.355,0.715
11.365,0.694
11.375,0.683
11.385,0.683
11.395,0.7
11.405,0.736
11.415,0.788
11.425,0.851
11.435,0.922
11.445,0.963
11.455,0.972
11.465,0.98
11.475,0.995
11.485,1.016
11.495,1.013
11.505,0.974
11.515,0.921
11.525,0.855
11.535,0.8
11.545,0.771
11.555,0.763
11.565,0.749
11.575,0.727
11.585,0.721
11.595,0.747
11.605,0.785
11.615,0.814
11.625,0.825
11.635,0.812
11.645,0.783
11.655,0.756
11.665,0.744
11.675,0.744
11.685,0.744
11.695,0.743
11.705,0.752
11.715,0.772
11.725,0.792
11.735,0.793
11.745,0.77
11.755,0.73
11.765,0.692
11.775,0.673
11.785,0.671
11.795,0.68
11.805,0.7
11.815,0.725
11.825,0.74
11.835,0.739
11.845,0.726
11.855,0.721
11.865,0.744
11.875,0.783
11.885,0.829
11.895,0.882
11.905,0.938
11.915,0.986
11.925,1.032
11.935,1.075
11.945,1.114
11.955,1.145
11.965,1.177
11.975,1.2
11.985,1.224
11.995,1.241
12.005,1.242
12.015,1.225
12.025,1.18
12.035,1.114
12.045,1.049
12.055,0.995
12.065,0.968
12.075,0.964
12.085,0.979
12.095,1.013
12.105,1.045
12.115,1.043
12.125,0.991
12.135,0.888
12.145,0.774
12.155,0.705
12.165,0.685
12.175,0.7
12.185,0.738
12.195,0.788
12.205,0.851
12.215,0.907
12.225,0.944
12.235,0.97
12.245,0.98
12.255,0.983
12.265,1.022
12.275,1.082
12.285,1.129
12.295,1.132
12.305,1.103
12.315,1.092
12.325,1.107
12.335,1.127
12.345,1.138
12.355,1.132
12.365,1.115
12.375,1.086
12.385,1.04
12.395,0.991
12.405,0.963
12.415,0.947
12.425,0.971
12.435,1.029
12.445,1.111
12.455,1.174
12.465,1.179
12.475,1.13
12.485,1.04
12.495,0.93
12.505,0.84
12.515,0.816
12.525,0.826
12.535,0.832
12.545,0.796
12.555,0.721
12.565,0.67
12.575,0.663
12.585,0.678
12.595,0.682
12.605,0.666
12.615,0.643
12.625,0.656
12.635,0.711
12.645,0.809
12.655,0.923
12.665,1.03
12.675,1.111
12.685,1.165
12.695,1.215
12.705,1.301
12.715,1.479
12.725,1.716
12.735,2.072
12.745,2.596
12.755,3.127
12.765,3.541
12.775,3.592
12.785,3.1
12.795,2.244
12.805,1.449
12.815,1.104
12.825,1.089
12.835,1.203
12.845,1.333
12.855,1.403
12.865,1.39
12.875,1.309
12.885,1.202
12.895,1.088
12.905,0.995
12.915,0.949
12.925,0.948
12.935,0.963
12.945,0.939
12.955,0.863
12.965,0.798
12.975,0.777
12.985,0.779
12.995,0.801
13.005,0.847
13.015,0.911
13.025,0.977
13.035,1.038
13.045,1.093
13.055,1.127
13.065,1.109
13.075,1.028
13.085,0.922
13.095,0.827
13.105,0.756
13.115,0.709
13.125,0.672
13.135,0.642
13.145,0.626
13.155,0.636
13.165,0.69
13.175,0.813
13.185,0.929
13.195,0.971
13.205,0.97
13.215,0.965
13.225,0.983
13.235,1.001
13.245,0.973
13.255,0.912
13.265,0.861
13.275,0.835
13.285,0.827
13.295,0.825
13.305,0.825
13.315,0.834
13.325,0.849
13.335,0.874
13.345,0.921
13.355,0.984
13.365,1.041
13.375,1.092
13.385,1.139
13.395,1.179
13.405,1.218
13.415,1.259
13.425,1.283
13.435,1.277
13.445,1.249
13.455,1.2
13.465,1.141
13.475,1.082
13.485,1.019
13.495,0.953
13.505,0.888
13.515,0.828
13.525,0.779
13.535,0.77
13.545,0.797
13.555,0.83
13.565,0.847
13.575,0.852
13.585,0.864
13.595,0.892
13.605,0.929
13.615,0.963
13.625,0.987
13.635,0.991
13.645,0.972
13.655,0.947
13.665,0.924
13.675,0.913
13.685,0.927
13.695,0.966
13.705,1.03
13.715,1.08
13.725,1.092
13.735,1.093
13.745,1.092
13.755,1.074
13.765,1.021
13.775,0.922
13.785,0.811
13.795,0.752
13.805,0.751
13.815,0.784
13.825,0.813
13.835,0.809
13.845,0.762
13.855,0.691
13.865,0.628
13.875,0.578
13.885,0.55
13.895,0.546
13.905,0.554
13.915,0.572
13.925,0.596
13.935,0.622
13.945,0.654
13.955,0.684
13.965,0.706
13.975,0.723
13.985,0.752
13.995,0.805
14.005,0.861
14.015,0.911
14.025,0.951
14.035,0.983
14.045,0.997
14.055,1.012
14.065,1.022
14.075,1.025
14.085,1.013
14.095,0.972
14.105,0.911
14.115,0.853
14.155,0.63
14.165,0.705
14.215,0.73
14.225,0.733
14.235,0.748
14.245,0.774
14.255,0.797
14.265,0.835
14.275,0.881
14.285,0.914
14.295,0.933
14.305,0.966
14.315,1.027
14.325,1.104
14.335,1.143
14.345,1.14
14.355,1.097
14.365,1.037
14.375,0.975
14.385,0.938
14.395,0.927
14.405,0.935
14.415,0.945
14.425,0.952
14.435,0.938
14.445,0.914
14.455,0.869
14.465,0.817
14.475,0.771
14.485,0.738
14.495,0.735
14.505,0.763
14.515,0.826
14.525,0.906
14.535,0.963
14.545,0.957
14.555,0.865
14.565,0.755
14.575,0.704
14.585,0.709
14.595,0.752
14.605,0.824
14.615,0.896
14.625,0.952
14.635,0.935
14.645,0.862
14.655,0.777
14.665,0.732
14.675,0.714
14.685,0.708
14.695,0.704
14.705,0.711
14.715,0.735
14.725,0.771
14.735,0.816
14.745,0.879
14.755,0.951
14.765,1.06
14.775,1.189
14.785,1.309
14.795,1.363
14.805,1.312
14.815,1.174
14.825,0.98
14.835,0.816
14.845,0.724
14.855,0.706
14.865,0.733
14.875,0.785
14.885,0.848
14.895,0.916
14.905,1.0
14.915,1.08
14.925,1.14
14.935,1.179
14.945,1.201
14.955,1.215
14.965,1.218
14.975,1.218
14.985,1.208
14.995,1.197
15.005,1.178
15.015,1.155
15.025,1.126
15.035,1.089
15.045,1.047
15.055,1.004
15.065,0.97
15.075,0.954
15.085,0.96
15.095,0.983
15.105,1.003
15.115,1.009
15.125,1.002
15.135,1.0
15.145,1.009
15.155,1.03
15.165,1.056
15.175,1.087
15.185,1.087
15.195,1.029
15.205,0.925
15.215,0.844
15.225,0.839
15.235,0.885
15.245,0.966
15.255,1.075
15.265,1.213
15.275,1.322
15.285,1.333
15.295,1.229
15.305,1.044
15.315,0.875
15.325,0.805
15.335,0.803
15.345,0.822
15.355,0.854
15.365,0.898
15.375,0.945
15.385,0.969
15.395,0.952
15.405,0.919
15.415,0.904
15.425,0.921
15.435,0.948
15.445,0.975
15.455,0.994
15.465,0.996
15.475,0.966
15.485,0.895
15.495,0.82
15.505,0.764
15.515,0.743
15.525,0.754
15.535,0.785
15.545,0.825
15.555,0.875
15.565,0.946
15.575,1.026
15.585,1.095
15.595,1.13
15.605,1.106
15.615,1.023
15.625,0.918
15.635,0.873
15.645,0.893
15.655,0.939
15.665,0.998
15.675,1.075
15.685,1.14
15.695,1.159
15.705,1.131
15.715,1.064
15.725,0.967
15.735,0.871
15.745,0.797
15.755,0.735
15.765,0.691
15.775,0.672
15.785,0.679
15.795,0.699
15.805,0.719
15.815,0.728
15.825,0.733
15.835,0.739
15.845,0.737
15.855,0.724
15.865,0.705
15.875,0.694
15.885,0.693
15.895,0.706
15.905,0.736
15.915,0.781
15.925,0.833
15.935,0.876
15.945,0.906
15.955,0.93
15.965,0.943
15.975,0.947
15.985,0.946
15.995,0.947
16.005,0.951
16.015,0.963
16.025,0.982
16.035,1.015
16.045,1.058
16.055,1.098
16.065,1.129
16.075,1.139
16.085,1.122
16.095,1.084
16.105,1.028
16.115,0.964
16.125,0.912
16.135,0.899
16.145,0.933
16.155,0.999
16.165,1.088
16.175,1.177
16.185,1.217
16.195,1.167
16.205,1.083
16.215,1.023
16.225,1.007
16.235,1.037
16.245,1.096
16.255,1.132
16.265,1.139
16.275,1.135
16.285,1.126
16.295,1.145
16.305,1.204
16.315,1.3
16.325,1.409
16.335,1.513
16.345,1.57
16.355,1.569
16.365,1.525
16.375,1.441
16.385,1.335
16.395,1.239
16.405,1.154
16.415,1.083
16.425,1.026
16.435,0.988
16.445,0.983
16.455,1.001
16.465,1.018
16.475,1.016
16.485,0.982
16.495,0.942
16.505,0.924
16.515,0.936
16.525,0.98
16.535,1.037
16.545,1.083
16.555,1.108
16.565,1.112
16.575,1.101
16.585,1.067
16.595,1.017
16.605,0.978
16.615,0.97
16.625,0.993
16.635,1.033
16.645,1.069
16.655,1.099
16.665,1.124
16.675,1.146
16.685,1.156
16.695,1.155
16.705,1.142
16.715,1.119
16.725,1.092
16.735,1.068
16.745,1.054
16.755,1.048
16.765,1.048
16.775,1.061
16.785,1.109
16.795,1.2
16.805,1.3
16.815,1.362
16.825,1.312
16.835,1.144
16.845,0.984
16.855,0.881
16.865,0.817
16.875,0.752
16.885,0.688
16.895,0.64
16.905,0.613
16.915,0.607
16.925,0.616
16.935,0.631
16.945,0.648
16.955,0.661
16.965,0.673
16.975,0.686
16.985,0.7
16.995,0.713
17.005,0.733
17.015,0.77
17.025,0.842
17.035,0.932
17.045,0.997
17.055,1.029
17.065,1.037
17.075,1.043
17.085,1.065
17.095,1.093
17.105,1.102
17.115,1.078
17.125,1.017
17.135,0.934
17.145,0.851
17.155,0.776
17.165,0.731
17.175,0.715
17.185,0.706
17.195,0.696
17.205,0.696
17.215,0.718
17.225,0.755
17.235,0.805
17.245,0.866
17.255,0.934
17.265,0.979
17.275,0.988
17.285,0.959
17.295,0.897
17.305,0.832
17.315,0.793
17.325,0.808
17.335,0.869
17.345,0.946
17.355,1.009
17.365,1.052
17.375,1.045
17.385,0.996
17.395,0.932
17.405,0.878
17.415,0.857
17.425,0.86
17.435,0.865
17.445,0.849
17.455,0.798
17.465,0.731
17.475,0.669
17.485,0.65
17.495,0.694
17.505,0.769
17.515,0.847
17.525,0.911
17.535,0.952
17.545,0.973
17.555,0.986
17.565,0.99
17.575,0.982
17.585,0.963
17.595,0.938
17.605,0.901
17.615,0.854
17.625,0.8
17.635,0.763
17.645,0.739
17.655,0.755
17.665,0.805
17.675,0.894
17.685,1.007
17.695,1.13
17.705,1.214
17.715,1.264
17.725,1.313
17.735,1.363
17.745,1.408
17.755,1.44
17.765,1.44
